1797.4545125325521
1793.7253537132626
1789.9961948939733
1786.2670360746838
1782.5378772553943
1778.808718436105
1775.0795596168155
1771.3504007975262
1767.6212419782366
1763.8920831589471
1760.1629243396578
1756.4337655203683
1752.7046067010788
1748.9754478817895
1745.2462890625
1741.5171302432107
1737.7879714239211
1734.0588126046316
1730.3296537853423
1726.6004949660528
1722.8713361467635
1719.142177327474
1715.4130185081845
1711.6838596888952
1707.9547008696056
1704.2255420503163
1700.4963832310268
1696.7672244117373
1693.038065592448
1689.3089067731585
1685.5797479538692
1681.8505891345796
1678.1214303152901
1674.3922714960008
1670.6631126767113
1666.9339538574218
1663.2047950381325
1659.475636218843
1655.7464773995537
1652.0173185802641
1648.2881597609746
1644.5590009416853
1640.8298421223958
1637.1006833031065
1633.371524483817
1629.6423656645275
1625.9132068452382
1622.1840480259486
1618.4548892066593
1614.7257303873698
1610.9965715680803
1607.267412748791
1603.5382539295015
1599.809095110212
1596.0799362909227
1592.3507774716331
1588.6216186523438
1584.8924598330543
1581.1633010137648
1577.4341421944755
1573.704983375186
1569.9758245558967
1566.2466657366072
1562.5175069173176
1558.7883480980283
1555.0591892787388
1551.3300304594495
1547.60087164016
1543.8717128208705
1540.1425540015812
1536.4133951822917
1532.6842363630024
1528.9550775437128
1525.2259187244233
1521.496759905134
1517.7676010858445
1514.038442266555
1510.3092834472657
1506.5801246279761
1502.8509658086869
1499.1218069893973
1495.3926481701078
1491.6634893508185
1487.934330531529
1484.2051717122397
1480.4760128929502
1476.7468540736606
1473.0176952543713
1469.2885364350818
1465.5593776157925
1461.830218796503
1458.1010599772135
1454.3719011579242
1450.6427423386347
1446.9135835193451
1443.1844247000558
1439.4552658807663
1435.726107061477
1431.9969482421875
1428.267789422898
1424.5386306036087
1420.8094717843192
1417.0803129650299
1413.3511541457403
1409.6219953264508
1405.8928365071615
1402.163677687872
1398.4345188685827
1394.7053600492932
1390.9762012300037
1387.2470424107144
1383.5178835914248
1379.7887247721355
1376.059565952846
1372.3304071335565
1368.6012483142672
1364.8720894949777
1361.1429306756881
1357.4137718563989
1353.6846130371093
1349.95545421782
1346.2262953985305
1342.497136579241
1338.7679777599517
1335.0388189406622
1331.3096601213729
1327.5805013020833
1323.8513424827938
1320.1221836635045
1316.393024844215
1312.6638660249257
1308.9347072056362
1305.2055483863467
1301.4763895670574
1297.7472307477678
1294.0180719284785
1290.288913109189
1286.5597542898995
1282.8305954706102
1279.1014366513207
1275.3722778320312
1271.6431190127419
1267.9139601934523
1264.184801374163
1260.4556425548735
1256.726483735584
1252.9973249162947
1249.2681660970052
1245.5390072777159
1241.8098484584264
1238.0806896391368
1234.3515308198475
1230.622372000558
1226.8932131812687
1223.1640543619792
1219.4348955426897
1215.7057367234004
1211.9765779041109
1208.2474190848216
1204.518260265532
1200.7891014462425
1197.0599426269532
1193.3307838076637
1189.6016249883742
1185.8724661690849
1182.1433073497954
1178.414148530506
1174.6849897112165
1170.955830891927
1167.2266720726377
1163.4975132533482
1159.768354434059
1156.0391956147694
1152.3100367954798
1148.5808779761905
1144.851719156901
1141.1225603376117
1137.3934015183222
1133.6642426990327
1129.9350838797434
1126.2059250604539
1122.4767662411643
1118.747607421875
1115.0184486025855
1111.2892897832962
1107.5601309640067
1103.8309721447172
1100.1018133254279
1096.3726545061384
1092.643495686849
1088.9143368675595
1085.18517804827
1081.4560192289807
1077.7268604096912
1073.997701590402
1070.2685427711124
1066.5393839518229
1062.8102251325336
1059.081066313244
1055.3519074939547
1051.6227486746652
1047.8935898553757
1044.1644310360864
1040.4352722167969
1036.7061133975074
1032.976954578218
1029.2477957589285
1025.5186369396392
1021.7894781203497
1018.0603193010602
1014.3311604817709
1010.6020016624814
1006.8728428431921
1003.1436840239026
999.414525204613
995.6853663853237
991.9562075660342
988.2270487467449
984.4978899274554
980.7687311081659
977.0395722888766
973.310413469587
969.5812546502975
965.8520958310082
962.1229370117187
958.3937781924294
954.6646193731399
950.9354605538504
947.2063017345608
943.4771429152715
939.7479840959822
936.018825276693
932.2896664574032
928.5605076381139
924.8313488188246
921.1021899995349
917.3730311802456
913.6438723609563
909.9147135416665
906.1855547223772
902.4563959030879
898.7272370837982
894.9980782645089
